BEGIN_SCAN_DATA
	FORMAT=CC-Export V1.9                  
	FILE_CREATION_DATE=15-Mar-2023 11:49:04
	LAST_MODIFIED=15-Mar-2023 11:49:04
	BEGIN_SCAN  1
		TASK_NAME=tba PDD Profiles
		PROGRAM=WaterTankScans
		MEAS_DATE=15-Mar-2023 11:46:33
		LINAC=CLINAC IX
		MODALITY=X
		ISOCENTER=1000.00
		INPLANE_AXIS=Y
		CROSSPLANE_AXIS=X
		DEPTH_AXIS=Depth
		INPLANE_AXIS_DIR=GUN_TARGET
		CROSSPLANE_AXIS_DIR=LEFT_RIGHT
		DEPTH_AXIS_DIR=UP_DOWN
		ENERGY=6.00
		NOMINAL_DMAX=15.00
		SSD=1000.00
		BLOCK=0
		WEDGE_ANGLE=0.00
		FIELD_INPLANE=100.00
		FIELD_CROSSPLANE=100.00
		FIELD_TYPE=RECTANGULAR
		GANTRY=0.00
		GANTRY_UPRIGHT_POSITION=0
		GANTRY_ROTATION=CW
		COLL_ANGLE=0.00
		COLL_OFFSET_INPLANE=0.00
		COLL_OFFSET_CROSSPLANE=0.00
		SCAN_DEVICE=BeamScan
		SCAN_DEVICE_SETUP=BARA_LEFT_RIGHT
		ELECTROMETER=BeamScan
		RANGE_FIELD=MEDIUM
		RANGE_REFERENCE=MEDIUM
		DETECTOR=THIMBLE_CHAMBER
		DETECTOR_SUBCODE=SEMIFLEX
		DETECTOR_RADIUS=2.75
		DETECTOR_NAME=PTW 31010 Semiflex 2022
		DETECTOR_SN=00000
		DETECTOR_CALIBRATION=293300000.00
		DETECTOR_IS_CALIBRATED=1
		DETECTOR_REFERENCE=THIMBLE_CHAMBER
		DETECTOR_REFERENCE_SUBCODE=SEMIFLEX
		DETECTOR_REFERENCE_RADIUS=2.75
		DETECTOR_REFERENCE_NAME=PTW 31010 Semiflex 2020
		DETECTOR_REFERENCE_SN=00000
		DETECTOR_REFERENCE_IS_CALIBRATED=1
		DETECTOR_REFERENCE_CALIBRATION=290700000.00
		DETECTOR_HV=400.0
		DETECTOR_REFERENCE_HV=400.0
		DETECTOR_ORIENTATION=HORIZONTAL
		FILTER=FF
		REF_FIELD_DEPTH=0.00
		REF_FIELD_DEFINED=ISOCENTER
		REF_FIELD_INPLANE=100.00
		REF_FIELD_CROSSPLANE=100.00
		REF_SCAN_POSITIONS=-80.00;-75.00;-70.00;-65.00;-60.00;-58.00;-55.00;-52.00;-49.00;-46.00;-43.00;-40.00;-30.00;-20.00;-10.00;0.00;10.00;20.00;30.00;40.00;43.00;46.00;49.00;52.00;55.00;58.00;60.00;65.00;70.00;75.00;80.00;
		REF_OVERSCAN_FACTOR=1.00
		SCAN_CURVETYPE=INPLANE_PROFILE
		SCAN_DEPTH=50.00
		SCAN_OFFAXIS_INPLANE=0.00
		SCAN_OFFAXIS_CROSSPLANE=0.00
		SCAN_ANGLE=0.00
		SCAN_DIAGONAL=NOT_DIAGONAL
		SCAN_DIRECTION=POSITIVE
		MEAS_MEDIUM=WATER
		MEAS_PRESET=REFERENCE_DOSEMETER
		MEAS_TIME=0.300
		MEAS_UNIT=A.U.
		SCAN_SPEEDS=50.00; 10.00;150.00; 20.00;999.00; 50.00;
		DELAY_TIMES=50.00; 0.500;150.00; 0.200;999.90; 0.000;
		PRESSURE=1013.25
		TEMPERATURE=20.00
		NORM_TEMPERATURE=20.00
		CORRECTION_FACTOR=1.0000
		EXPECTED_MAX_DOSE_RATE=3.00
		BEGIN_DATA
			-84.00		33.604E-03		4.2942E+00
			-78.75		38.553E-03		4.2907E+00
			-73.50		44.687E-03		4.2925E+00
			-68.25		53.318E-03		4.2907E+00
			-63.00		65.542E-03		4.2960E+00
			-60.90		73.765E-03		4.2942E+00
			-57.75		100.36E-03		4.2960E+00
			-54.60		213.68E-03		4.2907E+00
			-51.45		498.73E-03		4.2907E+00
			-48.30		727.13E-03		4.2838E+00
			-45.15		785.51E-03		4.2925E+00
			-42.00		800.83E-03		4.2872E+00
			-31.50		815.20E-03		4.2872E+00
			-21.00		821.43E-03		4.2890E+00
			-10.50		819.77E-03		4.2977E+00
			0.00		815.83E-03		4.3012E+00
			10.50		816.57E-03		4.2995E+00
			21.00		818.48E-03		4.2872E+00
			31.50		809.70E-03		4.2925E+00
			42.00		794.03E-03		4.2907E+00
			45.15		778.13E-03		4.2925E+00
			48.30		720.32E-03		4.2925E+00
			51.45		493.58E-03		4.2820E+00
			54.60		213.08E-03		4.2698E+00
			57.75		100.57E-03		4.2872E+00
			60.90		74.223E-03		4.3152E+00
			63.00		65.925E-03		4.2977E+00
			68.25		53.685E-03		4.2942E+00
			73.50		45.489E-03		4.2942E+00
			78.75		38.979E-03		4.2890E+00
			84.00		33.631E-03		4.2907E+00
		END_DATA
	END_SCAN  1
	BEGIN_SCAN  2
		TASK_NAME=tba PDD Profiles
		PROGRAM=WaterTankScans
		MEAS_DATE=15-Mar-2023 11:47:07
		LINAC=CLINAC IX 6357
		MODALITY=X
		ISOCENTER=1000.00
		INPLANE_AXIS=Y
		CROSSPLANE_AXIS=X
		DEPTH_AXIS=Depth
		INPLANE_AXIS_DIR=GUN_TARGET
		CROSSPLANE_AXIS_DIR=LEFT_RIGHT
		DEPTH_AXIS_DIR=UP_DOWN
		ENERGY=6.00
		NOMINAL_DMAX=15.00
		SSD=1000.00
		BLOCK=0
		WEDGE_ANGLE=0.00
		FIELD_INPLANE=100.00
		FIELD_CROSSPLANE=100.00
		FIELD_TYPE=RECTANGULAR
		GANTRY=0.00
		GANTRY_UPRIGHT_POSITION=0
		GANTRY_ROTATION=CW
		COLL_ANGLE=0.00
		COLL_OFFSET_INPLANE=0.00
		COLL_OFFSET_CROSSPLANE=0.00
		SCAN_DEVICE=BeamScan
		SCAN_DEVICE_SETUP=BARA_LEFT_RIGHT
		ELECTROMETER=BeamScan
		RANGE_FIELD=MEDIUM
		RANGE_REFERENCE=MEDIUM
		DETECTOR=THIMBLE_CHAMBER
		DETECTOR_SUBCODE=SEMIFLEX
		DETECTOR_RADIUS=2.75
		DETECTOR_NAME=PTW 31010 Semiflex 2022
		DETECTOR_SN=00000
		DETECTOR_CALIBRATION=293300000.00
		DETECTOR_IS_CALIBRATED=1
		DETECTOR_REFERENCE=THIMBLE_CHAMBER
		DETECTOR_REFERENCE_SUBCODE=SEMIFLEX
		DETECTOR_REFERENCE_RADIUS=2.75
		DETECTOR_REFERENCE_NAME=PTW 31010 Semiflex 2020
		DETECTOR_REFERENCE_SN=00000
		DETECTOR_REFERENCE_IS_CALIBRATED=1
		DETECTOR_REFERENCE_CALIBRATION=290700000.00
		DETECTOR_HV=400.0
		DETECTOR_REFERENCE_HV=400.0
		DETECTOR_ORIENTATION=HORIZONTAL
		FILTER=FF
		REF_FIELD_DEPTH=0.00
		REF_FIELD_DEFINED=ISOCENTER
		REF_FIELD_INPLANE=100.00
		REF_FIELD_CROSSPLANE=100.00
		REF_SCAN_POSITIONS=-80.00;-75.00;-70.00;-65.00;-60.00;-58.00;-55.00;-52.00;-49.00;-46.00;-43.00;-40.00;-30.00;-20.00;-10.00;0.00;10.00;20.00;30.00;40.00;43.00;46.00;49.00;52.00;55.00;58.00;60.00;65.00;70.00;75.00;80.00;
		REF_OVERSCAN_FACTOR=1.00
		SCAN_CURVETYPE=CROSSPLANE_PROFILE
		SCAN_DEPTH=50.00
		SCAN_OFFAXIS_INPLANE=0.00
		SCAN_OFFAXIS_CROSSPLANE=0.00
		SCAN_ANGLE=0.00
		SCAN_DIAGONAL=NOT_DIAGONAL
		SCAN_DIRECTION=POSITIVE
		MEAS_MEDIUM=WATER
		MEAS_PRESET=REFERENCE_DOSEMETER
		MEAS_TIME=0.300
		MEAS_UNIT=A.U.
		SCAN_SPEEDS=50.00; 10.00;150.00; 20.00;999.00; 50.00;
		DELAY_TIMES=50.00; 0.500;150.00; 0.200;999.90; 0.000;
		PRESSURE=1013.25
		TEMPERATURE=20.00
		NORM_TEMPERATURE=20.00
		CORRECTION_FACTOR=1.0000
		EXPECTED_MAX_DOSE_RATE=3.00
		BEGIN_DATA
			-84.00		26.681E-03		4.2872E+00
			-78.75		31.594E-03		4.2890E+00
			-73.50		38.159E-03		4.2890E+00
			-68.25		46.775E-03		4.2890E+00
			-63.00		59.905E-03		4.2890E+00
			-60.90		69.285E-03		4.2925E+00
			-57.75		104.26E-03		4.2872E+00
			-54.60		238.60E-03		4.2925E+00
			-51.45		512.07E-03		4.2855E+00
			-48.30		735.23E-03		4.2820E+00
			-45.15		791.22E-03		4.2838E+00
			-42.00		806.33E-03		4.2907E+00
			-31.50		821.10E-03		4.2907E+00
			-21.00		826.43E-03		4.2907E+00
			-10.50		821.89E-03		4.2995E+00
			0.00		816.26E-03		4.2925E+00
			10.50		817.00E-03		4.2907E+00
			21.00		814.05E-03		4.2890E+00
			31.50		806.09E-03		4.2768E+00
			42.00		788.56E-03		4.2960E+00
			45.15		773.28E-03		4.3012E+00
			48.30		714.17E-03		4.2925E+00
			51.45		517.80E-03		4.2925E+00
			54.60		240.22E-03		4.2855E+00
			57.75		100.16E-03		4.2872E+00
			60.90		69.342E-03		4.2890E+00
			63.00		59.880E-03		4.2907E+00
			68.25		45.973E-03		4.2872E+00
			73.50		37.368E-03		4.2855E+00
			78.75		31.209E-03		4.2855E+00
			84.00		26.345E-03		4.2750E+00
		END_DATA
	END_SCAN  2
END_SCAN_DATA
