BEGIN_SCAN_DATA
	FORMAT=CC-Export V1.9                  
	FILE_CREATION_DATE=15-Dec-2022 10:58:33
	LAST_MODIFIED=15-Dec-2022 10:58:33
	BEGIN_SCAN  1
		TASK_NAME=tba PDD Profiles
		PROGRAM=WaterTankScans
		MEAS_DATE=14-Dec-2022 13:12:45
		LINAC=CLINAC IX 0000
		MODALITY=X
		ISOCENTER=1000.00
		INPLANE_AXIS=Y
		CROSSPLANE_AXIS=X
		DEPTH_AXIS=Depth
		INPLANE_AXIS_DIR=GUN_TARGET
		CROSSPLANE_AXIS_DIR=LEFT_RIGHT
		DEPTH_AXIS_DIR=UP_DOWN
		ENERGY=6.00
		NOMINAL_DMAX=15.00
		SSD=850.00
		SCD=0.00
		WEDGE_ANGLE=0.00
		FIELD_INPLANE=100.00
		FIELD_CROSSPLANE=100.00
		FIELD_TYPE=RECTANGULAR
		GANTRY=0.00
		GANTRY_UPRIGHT_POSITION=0
		GANTRY_ROTATION=CW
		COLL_ANGLE=0.00
		COLL_OFFSET_INPLANE=0.00
		COLL_OFFSET_CROSSPLANE=0.00
		SCAN_DEVICE=BeamScan
		SCAN_DEVICE_SETUP=BARA_LEFT_RIGHT
		ELECTROMETER=BeamScan
		RANGE_FIELD=MEDIUM
		RANGE_REFERENCE=MEDIUM
		DETECTOR=THIMBLE_CHAMBER
		DETECTOR_SUBCODE=SEMIFLEX
		DETECTOR_RADIUS=2.75
		DETECTOR_NAME=PTW 31010 Semiflex 2022
		DETECTOR_SN=00000
		DETECTOR_CALIBRATION=293300000.00
		DETECTOR_IS_CALIBRATED=0
		DETECTOR_REFERENCE=THIMBLE_CHAMBER
		DETECTOR_REFERENCE_SUBCODE=SEMIFLEX
		DETECTOR_REFERENCE_RADIUS=2.75
		DETECTOR_REFERENCE_NAME=PTW 31010 Semiflex 2020
		DETECTOR_REFERENCE_SN=00000
		DETECTOR_REFERENCE_IS_CALIBRATED=0
		DETECTOR_REFERENCE_CALIBRATION=290700000.00
		DETECTOR_HV=400.0
		DETECTOR_REFERENCE_HV=400.0
		DETECTOR_ORIENTATION=HORIZONTAL
		REF_FIELD_DEPTH=150.00
		REF_FIELD_DEFINED=ISOCENTER
		REF_FIELD_INPLANE=100.00
		REF_FIELD_CROSSPLANE=100.00
		REF_SCAN_POSITIONS=0.00;2.00;4.00;6.00;8.00;10.00;12.00;14.00;16.00;18.00;20.00;25.00;30.00;35.00;40.00;45.00;50.00;60.00;70.00;80.00;90.00;100.00;110.00;120.00;130.00;140.00;150.00;160.00;170.00;180.00;190.00;200.00;210.00;220.00;230.00;240.00;250.00;260.00;270.00;280.00;290.00;300.00;
		SCAN_CURVETYPE=PDD
		SCAN_OFFAXIS_INPLANE=0.00
		SCAN_OFFAXIS_CROSSPLANE=0.00
		SCAN_ANGLE=0.00
		SCAN_DIAGONAL=NOT_DIAGONAL
		SCAN_DIRECTION=NEGATIVE
		MEAS_MEDIUM=WATER
		MEAS_PRESET=REFERENCE_DOSEMETER
		MEAS_TIME=0.300
		MEAS_UNIT=A.U.
		SCAN_SPEEDS=50.00; 10.00;150.00; 20.00;999.00; 50.00;
		DELAY_TIMES=50.00; 0.500;150.00; 0.200;999.90; 0.000;
		INCLINATION_ANGLE=0.00
		PRESSURE=1013.25
		TEMPERATURE=20.00
		NORM_TEMPERATURE=20.00
		CORRECTION_FACTOR=1.0000
		EXPECTED_MAX_DOSE_RATE=3.00
		BEGIN_DATA
			0.00		425.71E-03		6.9489E+00
			2.00		513.59E-03		6.9489E+00
			4.00		656.93E-03		6.9489E+00
			6.00		729.17E-03		6.9506E+00
			8.00		768.04E-03		6.9471E+00
			10.00		786.73E-03		6.9454E+00
			12.00		794.89E-03		6.9471E+00
			14.00		795.96E-03		6.9489E+00
			16.00		793.68E-03		6.9489E+00
			18.00		788.93E-03		6.9506E+00
			20.00		782.71E-03		6.9541E+00
			25.00		765.13E-03		6.9506E+00
			30.00		745.63E-03		6.9506E+00
			35.00		727.11E-03		6.9559E+00
			40.00		709.41E-03		6.9384E+00
			45.00		691.27E-03		6.9245E+00
			50.00		672.21E-03		6.9559E+00
			60.00		637.37E-03		6.9716E+00
			70.00		601.84E-03		6.9768E+00
			80.00		569.93E-03		6.9227E+00
			90.00		537.22E-03		6.9315E+00
			100.00		507.77E-03		6.9454E+00
			110.00		478.63E-03		6.9454E+00
			120.00		451.66E-03		6.9471E+00
			130.00		424.89E-03		6.9541E+00
			140.00		400.79E-03		6.9506E+00
			150.00		377.40E-03		6.9524E+00
			160.00		356.41E-03		6.9471E+00
			170.00		336.31E-03		6.9489E+00
			180.00		316.54E-03		6.9716E+00
			190.00		298.07E-03		6.9785E+00
			200.00		280.97E-03		6.9524E+00
			210.00		264.77E-03		6.9123E+00
			220.00		250.39E-03		6.9227E+00
			230.00		235.99E-03		6.9576E+00
			240.00		222.86E-03		6.9646E+00
			250.00		209.82E-03		6.9698E+00
			260.00		198.10E-03		6.9646E+00
			270.00		186.36E-03		6.9594E+00
			280.00		176.63E-03		6.9541E+00
			290.00		167.10E-03		6.9611E+00
			300.00		157.43E-03		6.9419E+00
		END_DATA
	END_SCAN  1
END_SCAN_DATA
