BEGIN_SCAN_DATA
	FORMAT=CC-Export V1.9                  
	FILE_CREATION_DATE=15-Dec-2022 11:06:19
	LAST_MODIFIED=15-Dec-2022 11:06:19
	BEGIN_SCAN  1
		TASK_NAME=tba PDD Profiles
		PROGRAM=WaterTankScans
		MEAS_DATE=14-Dec-2022 13:15:18
		LINAC=CLINAC IX 0000
		MODALITY=X
		ISOCENTER=1000.00
		INPLANE_AXIS=Y
		CROSSPLANE_AXIS=X
		DEPTH_AXIS=Depth
		INPLANE_AXIS_DIR=GUN_TARGET
		CROSSPLANE_AXIS_DIR=LEFT_RIGHT
		DEPTH_AXIS_DIR=UP_DOWN
		ENERGY=6.00
		NOMINAL_DMAX=13.00
		SSD=850.00
		SCD=0.00
		WEDGE_ANGLE=0.00
		FIELD_INPLANE=100.00
		FIELD_CROSSPLANE=100.00
		FIELD_TYPE=RECTANGULAR
		GANTRY=0.00
		GANTRY_UPRIGHT_POSITION=0
		GANTRY_ROTATION=CW
		COLL_ANGLE=0.00
		COLL_OFFSET_INPLANE=0.00
		COLL_OFFSET_CROSSPLANE=0.00
		SCAN_DEVICE=BeamScan
		SCAN_DEVICE_SETUP=BARA_LEFT_RIGHT
		ELECTROMETER=BeamScan
		RANGE_FIELD=MEDIUM
		RANGE_REFERENCE=MEDIUM
		DETECTOR=THIMBLE_CHAMBER
		DETECTOR_SUBCODE=SEMIFLEX
		DETECTOR_RADIUS=2.75
		DETECTOR_NAME=PTW 31010 Semiflex 2022
		DETECTOR_SN=00000
		DETECTOR_CALIBRATION=293300000.00
		DETECTOR_IS_CALIBRATED=0
		DETECTOR_REFERENCE=THIMBLE_CHAMBER
		DETECTOR_REFERENCE_SUBCODE=SEMIFLEX
		DETECTOR_REFERENCE_RADIUS=2.75
		DETECTOR_REFERENCE_NAME=PTW 31010 Semiflex 2020
		DETECTOR_REFERENCE_SN=00000
		DETECTOR_REFERENCE_IS_CALIBRATED=0
		DETECTOR_REFERENCE_CALIBRATION=290700000.00
		DETECTOR_HV=400.0
		DETECTOR_REFERENCE_HV=400.0
		DETECTOR_ORIENTATION=HORIZONTAL
		FILTER=FFF
		REF_FIELD_DEPTH=150.00
		REF_FIELD_DEFINED=ISOCENTER
		REF_FIELD_INPLANE=100.00
		REF_FIELD_CROSSPLANE=100.00
		REF_SCAN_POSITIONS=0.00;3.00;6.00;9.00;12.00;15.00;18.00;21.00;24.00;25.00;30.00;35.00;40.00;45.00;50.00;60.00;70.00;80.00;90.00;100.00;110.00;120.00;130.00;140.00;150.00;160.00;170.00;180.00;190.00;200.00;210.00;220.00;230.00;240.00;250.00;260.00;270.00;280.00;290.00;300.00;
		SCAN_CURVETYPE=PDD
		SCAN_OFFAXIS_INPLANE=0.00
		SCAN_OFFAXIS_CROSSPLANE=0.00
		SCAN_ANGLE=0.00
		SCAN_DIAGONAL=NOT_DIAGONAL
		SCAN_DIRECTION=NEGATIVE
		MEAS_MEDIUM=WATER
		MEAS_PRESET=REFERENCE_DOSEMETER
		MEAS_TIME=0.300
		MEAS_UNIT=A.U.
		SCAN_SPEEDS=50.00; 10.00;150.00; 20.00;999.00; 50.00;
		DELAY_TIMES=50.00; 0.500;150.00; 0.200;999.90; 0.000;
		INCLINATION_ANGLE=0.00
		PRESSURE=1013.25
		TEMPERATURE=20.00
		NORM_TEMPERATURE=20.00
		CORRECTION_FACTOR=1.0000
		EXPECTED_MAX_DOSE_RATE=3.00
		BEGIN_DATA
			0.00		534.29E-03		8.9129E+00
			3.00		676.06E-03		8.8972E+00
			6.00		813.55E-03		8.9164E+00
			9.00		859.24E-03		8.7105E+00
			12.00		871.12E-03		8.7977E+00
			15.00		868.48E-03		8.7576E+00
			18.00		858.78E-03		8.6251E+00
			21.00		847.41E-03		8.8134E+00
			24.00		834.79E-03		8.8518E+00
			25.00		830.48E-03		8.7960E+00
			30.00		808.07E-03		8.8483E+00
			35.00		785.81E-03		8.8727E+00
			40.00		764.41E-03		8.9094E+00
			45.00		742.63E-03		8.8413E+00
			50.00		722.32E-03		8.6879E+00
			60.00		679.18E-03		8.6024E+00
			70.00		639.15E-03		8.9896E+00
			80.00		600.72E-03		8.7036E+00
			90.00		562.84E-03		8.7140E+00
			100.00		528.32E-03		8.6338E+00
			110.00		495.03E-03		8.8553E+00
			120.00		464.23E-03		8.9425E+00
			130.00		435.64E-03		8.8588E+00
			140.00		407.91E-03		8.7751E+00
			150.00		382.68E-03		8.9076E+00
			160.00		358.12E-03		8.7419E+00
			170.00		336.45E-03		8.7140E+00
			180.00		314.95E-03		8.8675E+00
			190.00		295.87E-03		8.8326E+00
			200.00		277.78E-03		8.8884E+00
			210.00		260.69E-03		8.8501E+00
			220.00		244.64E-03		8.9774E+00
			230.00		229.91E-03		8.7105E+00
			240.00		215.39E-03		8.8239E+00
			250.00		202.81E-03		8.9198E+00
			260.00		190.96E-03		8.7088E+00
			270.00		179.22E-03		8.7489E+00
			280.00		168.66E-03		8.7437E+00
			290.00		158.46E-03		8.6844E+00
			300.00		149.35E-03		8.6722E+00
		END_DATA
	END_SCAN  1
END_SCAN_DATA
