BEGIN_SCAN_DATA
	FORMAT=CC-Export V1.9                  
	FILE_CREATION_DATE=15-Dec-2022 11:09:12
	LAST_MODIFIED=15-Dec-2022 11:09:12
	BEGIN_SCAN  1
		TASK_NAME=tba PDD Profiles
		PROGRAM=WaterTankScans
		MEAS_DATE=14-Dec-2022 13:13:54
		LINAC=CLINAC IX 0000
		MODALITY=X
		ISOCENTER=1000.00
		INPLANE_AXIS=Y
		CROSSPLANE_AXIS=X
		DEPTH_AXIS=Depth
		INPLANE_AXIS_DIR=GUN_TARGET
		CROSSPLANE_AXIS_DIR=LEFT_RIGHT
		DEPTH_AXIS_DIR=UP_DOWN
		ENERGY=15.00
		NOMINAL_DMAX=27.00
		SSD=850.00
		SCD=0.00
		WEDGE_ANGLE=0.00
		FIELD_INPLANE=100.00
		FIELD_CROSSPLANE=100.00
		FIELD_TYPE=RECTANGULAR
		GANTRY=0.00
		GANTRY_UPRIGHT_POSITION=0
		GANTRY_ROTATION=CW
		COLL_ANGLE=0.00
		COLL_OFFSET_INPLANE=0.00
		COLL_OFFSET_CROSSPLANE=0.00
		SCAN_DEVICE=BeamScan
		SCAN_DEVICE_SETUP=BARA_LEFT_RIGHT
		ELECTROMETER=BeamScan
		RANGE_FIELD=MEDIUM
		RANGE_REFERENCE=MEDIUM
		DETECTOR=THIMBLE_CHAMBER
		DETECTOR_SUBCODE=SEMIFLEX
		DETECTOR_RADIUS=2.75
		DETECTOR_NAME=PTW 31010 Semiflex 2022
		DETECTOR_SN=00000
		DETECTOR_CALIBRATION=293300000.00
		DETECTOR_IS_CALIBRATED=0
		DETECTOR_REFERENCE=THIMBLE_CHAMBER
		DETECTOR_REFERENCE_SUBCODE=SEMIFLEX
		DETECTOR_REFERENCE_RADIUS=2.75
		DETECTOR_REFERENCE_NAME=PTW 31010 Semiflex 2020
		DETECTOR_REFERENCE_SN=00000
		DETECTOR_REFERENCE_IS_CALIBRATED=0
		DETECTOR_REFERENCE_CALIBRATION=290700000.00
		DETECTOR_HV=400.0
		DETECTOR_REFERENCE_HV=400.0
		DETECTOR_ORIENTATION=HORIZONTAL
		REF_FIELD_DEPTH=150.00
		REF_FIELD_DEFINED=ISOCENTER
		REF_FIELD_INPLANE=100.00
		REF_FIELD_CROSSPLANE=100.00
		REF_SCAN_POSITIONS=0.00;3.00;6.00;9.00;12.00;15.00;18.00;21.00;24.00;27.00;30.00;33.00;35.00;40.00;45.00;50.00;60.00;70.00;80.00;90.00;100.00;110.00;120.00;130.00;140.00;150.00;160.00;170.00;180.00;190.00;200.00;210.00;220.00;230.00;240.00;250.00;260.00;270.00;280.00;290.00;300.00;
		SCAN_CURVETYPE=PDD
		SCAN_OFFAXIS_INPLANE=0.00
		SCAN_OFFAXIS_CROSSPLANE=0.00
		SCAN_ANGLE=0.00
		SCAN_DIAGONAL=NOT_DIAGONAL
		SCAN_DIRECTION=NEGATIVE
		MEAS_MEDIUM=WATER
		MEAS_PRESET=REFERENCE_DOSEMETER
		MEAS_TIME=0.300
		MEAS_UNIT=A.U.
		SCAN_SPEEDS=50.00; 10.00;150.00; 20.00;999.00; 50.00;
		DELAY_TIMES=50.00; 0.500;150.00; 0.200;999.90; 0.000;
		INCLINATION_ANGLE=0.00
		PRESSURE=1013.25
		TEMPERATURE=20.00
		NORM_TEMPERATURE=20.00
		CORRECTION_FACTOR=1.0000
		EXPECTED_MAX_DOSE_RATE=3.00
		BEGIN_DATA
			0.00		383.68E-03		5.3250E+00
			3.00		541.98E-03		5.3250E+00
			6.00		751.92E-03		5.3268E+00
			9.00		872.85E-03		5.3146E+00
			12.00		947.54E-03		5.3024E+00
			15.00		994.03E-03		5.3093E+00
			18.00		1.0218E+00		5.3285E+00
			21.00		1.0360E+00		5.3373E+00
			24.00		1.0414E+00		5.3076E+00
			27.00		1.0418E+00		5.3041E+00
			30.00		1.0391E+00		5.3111E+00
			33.00		1.0325E+00		5.3146E+00
			35.00		1.0265E+00		5.3233E+00
			40.00		1.0086E+00		5.3250E+00
			45.00		990.73E-03		5.3146E+00
			50.00		970.24E-03		5.3198E+00
			60.00		927.92E-03		5.3216E+00
			70.00		888.03E-03		5.3268E+00
			80.00		847.66E-03		5.3355E+00
			90.00		810.13E-03		5.3198E+00
			100.00		774.07E-03		5.2448E+00
			110.00		738.46E-03		5.3285E+00
			120.00		704.58E-03		5.3250E+00
			130.00		673.07E-03		5.3181E+00
			140.00		641.87E-03		5.3216E+00
			150.00		612.47E-03		5.3041E+00
			160.00		584.44E-03		5.3146E+00
			170.00		557.66E-03		5.3268E+00
			180.00		532.35E-03		5.3024E+00
			190.00		508.61E-03		5.3181E+00
			200.00		485.11E-03		5.3181E+00
			210.00		463.48E-03		5.3233E+00
			220.00		442.20E-03		5.3407E+00
			230.00		423.16E-03		5.3024E+00
			240.00		403.45E-03		5.3216E+00
			250.00		385.08E-03		5.3285E+00
			260.00		367.49E-03		5.3059E+00
			270.00		352.05E-03		5.2936E+00
			280.00		335.76E-03		5.3041E+00
			290.00		321.54E-03		5.3198E+00
			300.00		306.88E-03		5.3216E+00
		END_DATA
	END_SCAN  1
END_SCAN_DATA
